elapsed_s,x,y,theta,v_meas,v_cmd,delta_cmd,cross_track_err,heading_err,progress_pct
0.0000,0.0000,0.0000,0.0000,0.0000,0.4607,0.2189,0.0000,-0.1053,0.0
0.1000,0.0217,0.0026,0.0188,0.2182,0.3621,0.3075,0.0003,-0.0936,0.2
0.2000,0.0493,0.0080,0.0534,0.2817,0.2600,0.3250,0.0022,-0.0894,0.5
0.3000,0.0755,0.0144,0.0884,0.2700,0.3225,0.3264,0.0043,-0.0853,0.7
0.4000,0.1039,0.0224,0.1269,0.2951,0.3242,0.3100,0.0069,-0.0737,1.0
0.5000,0.1333,0.0317,0.1650,0.3083,0.3234,0.2829,0.0096,-0.0638,1.3
0.6000,0.1632,0.0418,0.2004,0.3152,0.3193,0.2659,0.0123,-0.0581,1.6
0.7000,0.1929,0.0527,0.2338,0.3170,0.3171,0.2471,0.0148,-0.0555,1.9
0.8000,0.2224,0.0643,0.2648,0.3170,0.3151,0.2353,0.0170,-0.0562,2.2
0.9000,0.2516,0.0766,0.2942,0.3161,0.3141,0.2280,0.0189,-0.0590,2.5
1.0000,0.2803,0.0896,0.3225,0.3152,0.3145,0.2233,0.0206,-0.0631,2.8
1.1000,0.3087,0.1032,0.3503,0.3149,0.3165,0.2192,0.0221,-0.0674,3.1
1.2000,0.3367,0.1177,0.3776,0.3156,0.3199,0.2148,0.0234,-0.0716,3.4
1.3000,0.3646,0.1329,0.4045,0.3176,0.3246,0.2093,0.0246,-0.0753,3.7
1.4000,0.3924,0.1489,0.4310,0.3209,0.3302,0.2025,0.0255,-0.0783,4.1
1.5000,0.4202,0.1658,0.4569,0.3252,0.3354,0.1942,0.0262,-0.0809,4.4
1.6000,0.4480,0.1836,0.4822,0.3300,0.3428,0.1849,0.0268,-0.0825,4.7
1.7000,0.4760,0.2022,0.5066,0.3359,0.3502,0.1748,0.0271,-0.0834,5.0
1.8000,0.5041,0.2217,0.5301,0.3426,0.3576,0.1642,0.0272,-0.0836,5.3
1.9000,0.5325,0.2421,0.5527,0.3495,0.3648,0.1535,0.0272,-0.0832,5.7
2.0000,0.5611,0.2635,0.5742,0.3566,0.3720,0.1427,0.0270,-0.0822,6.0
2.1000,0.5899,0.2857,0.5945,0.3638,0.3791,0.1320,0.0267,-0.0807,6.4
2.2000,0.6189,0.3087,0.6137,0.3709,0.3861,0.1215,0.0261,-0.0788,6.7
2.3000,0.6482,0.3326,0.6317,0.3780,0.3931,0.1113,0.0255,-0.0764,7.1
2.4000,0.6778,0.3572,0.6485,0.3850,0.3999,0.1011,0.0248,-0.0737,7.5
2.5000,0.7076,0.3827,0.6640,0.3919,0.4067,0.0911,0.0239,-0.0706,7.8
2.6000,0.7376,0.4089,0.6782,0.3988,0.4133,0.0812,0.0230,-0.0672,8.2
2.7000,0.7680,0.4358,0.6911,0.4055,0.4200,0.0713,0.0220,-0.0635,8.6
2.8000,0.7986,0.4634,0.7026,0.4122,0.4266,0.0614,0.0209,-0.0595,9.0
2.9000,0.8296,0.4916,0.7127,0.4189,0.4333,0.0516,0.0198,-0.0554,9.4
3.0000,0.8610,0.5203,0.7212,0.4256,0.4401,0.0418,0.0186,-0.0510,9.8
3.1000,0.8927,0.5497,0.7283,0.4323,0.4470,0.0320,0.0174,-0.0465,10.2
3.2000,0.9249,0.5795,0.7338,0.4391,0.4529,0.0220,0.0162,-0.0417,10.6
3.3000,0.9576,0.6098,0.7376,0.4455,0.4453,0.0115,0.0149,-0.0368,11.0
3.4000,0.9904,0.6399,0.7396,0.4452,0.4378,0.0005,0.0136,-0.0318,11.5
3.5000,1.0230,0.6697,0.7397,0.4417,0.4305,-0.0108,0.0123,-0.0269,11.9
3.6000,1.0554,0.6989,0.7379,0.4365,0.4234,-0.0223,0.0110,-0.0222,12.3
3.7000,1.0876,0.7275,0.7341,0.4304,0.4166,-0.0334,0.0097,-0.0176,12.7
3.8000,1.1197,0.7553,0.7286,0.4240,0.4104,-0.0439,0.0083,-0.0133,13.1
3.9000,1.1515,0.7823,0.7214,0.4177,0.4048,-0.0532,0.0069,-0.0093,13.5
4.0000,1.1833,0.8085,0.7129,0.4117,0.4002,-0.0607,0.0055,-0.0054,13.9
4.1000,1.2149,0.8340,0.7032,0.4064,0.3970,-0.0659,0.0041,-0.0018,14.3
4.2000,1.2466,0.8588,0.6929,0.4021,0.3957,-0.0685,0.0028,0.0015,14.7
4.3000,1.2783,0.8830,0.6822,0.3991,0.3963,-0.0683,0.0015,0.0045,15.0
4.4000,1.3101,0.9069,0.6715,0.3979,0.3992,-0.0654,0.0004,0.0071,15.4
4.5000,1.3422,0.9305,0.6613,0.3985,0.4041,-0.0602,0.0006,0.0092,15.8
4.6000,1.3747,0.9540,0.6519,0.4012,0.4108,-0.0534,0.0014,0.0106,16.2
4.7000,1.4077,0.9776,0.6434,0.4057,0.4185,-0.0456,0.0020,0.0113,16.6
4.8000,1.4413,1.0014,0.6361,0.4116,0.4265,-0.0376,0.0025,0.0113,16.9
4.9000,1.4755,1.0255,0.6300,0.4185,0.4341,-0.0300,0.0028,0.0107,17.3
5.0000,1.5103,1.0500,0.6250,0.4257,0.4405,-0.0233,0.0030,0.0096,17.7
5.1000,1.5458,1.0748,0.6210,0.4326,0.4455,-0.0174,0.0031,0.0081,18.2
5.2000,1.5817,1.1000,0.6181,0.4385,0.4498,-0.0121,0.0032,0.0065,18.6
5.3000,1.6180,1.1255,0.6160,0.4437,0.4531,-0.0068,0.0032,0.0049,19.0
5.4000,1.6547,1.1512,0.6148,0.4481,0.4505,-0.0011,0.0031,0.0034,19.4
5.5000,1.6914,1.1771,0.6146,0.4491,0.4465,0.0057,0.0030,0.0020,19.8
5.6000,1.7279,1.2030,0.6156,0.4479,0.4412,0.0137,0.0028,0.0005,20.3
5.7000,1.7640,1.2290,0.6180,0.4447,0.4343,0.0230,0.0025,-0.0011,20.7
5.8000,1.7995,1.2550,0.6219,0.4399,0.4260,0.0331,0.0021,-0.0031,21.1
5.9000,1.8343,1.2809,0.6275,0.4334,0.4171,0.0434,0.0016,-0.0057,21.5
6.0000,1.8681,1.3067,0.6347,0.4258,0.4089,0.0534,0.0010,-0.0088,21.9
6.1000,1.9010,1.3326,0.6434,0.4180,0.4020,0.0631,0.0003,-0.0123,22.3
6.2000,1.9329,1.3584,0.6536,0.4106,0.3966,0.0724,0.0004,-0.0159,22.7
6.3000,1.9639,1.3843,0.6650,0.4041,0.3923,0.0820,0.0012,-0.0193,23.1
6.4000,1.9941,1.4103,0.6778,0.3987,0.3881,0.0924,0.0020,-0.0224,23.5
6.5000,2.0234,1.4366,0.6920,0.3938,0.3830,0.1044,0.0029,-0.0252,23.8
6.6000,2.0518,1.4632,0.7079,0.3888,0.3764,0.1182,0.0039,-0.0279,24.2
6.7000,2.0791,1.4900,0.7257,0.3830,0.3676,0.1367,0.0051,-0.0305,24.6
6.8000,2.1052,1.5171,0.7458,0.3758,0.3576,0.1557,0.0065,-0.0331,24.9
6.9000,2.1298,1.5444,0.7683,0.3674,0.3473,0.1734,0.0081,-0.0357,25.3
7.0000,2.1530,1.5717,0.7927,0.3581,0.3370,0.1925,0.0099,-0.0387,25.6
7.1000,2.1745,1.5990,0.8190,0.3483,0.3283,0.2059,0.0119,-0.0417,26.0
7.2000,2.1946,1.6263,0.8466,0.3390,0.3205,0.2204,0.0139,-0.0452,26.3
7.3000,2.2132,1.6536,0.8753,0.3305,0.3151,0.2287,0.0161,-0.0488,26.6
7.4000,2.2305,1.6809,0.9045,0.3234,0.3098,0.2412,0.0182,-0.0529,26.9
7.5000,2.2465,1.7083,0.9347,0.3171,0.3077,0.2452,0.0203,-0.0564,27.2
7.6000,2.2614,1.7358,0.9651,0.3128,0.3051,0.2520,0.0224,-0.0603,27.5
7.7000,2.2752,1.7635,0.9959,0.3093,0.3047,0.2531,0.0244,-0.0640,27.8
7.8000,2.2881,1.7914,1.0267,0.3072,0.3034,0.2586,0.0263,-0.0680,28.1
7.9000,2.2999,1.8196,1.0580,0.3054,0.3040,0.2588,0.0282,-0.0717,28.4
8.0000,2.3108,1.8481,1.0893,0.3048,0.3034,0.2639,0.0300,-0.0756,28.7
8.1000,2.3206,1.8768,1.1211,0.3042,0.3045,0.2636,0.0317,-0.0790,29.0
8.2000,2.3296,1.9059,1.1529,0.3043,0.3041,0.2685,0.0334,-0.0826,29.3
8.3000,2.3376,1.9352,1.1853,0.3042,0.3054,0.2677,0.0349,-0.0857,29.6
8.4000,2.3446,1.9649,1.2176,0.3048,0.3049,0.2725,0.0364,-0.0891,29.9
8.5000,2.3506,1.9948,1.2506,0.3048,0.3063,0.2714,0.0379,-0.0919,30.2
8.6000,2.3557,2.0249,1.2835,0.3055,0.3057,0.2761,0.0393,-0.0950,30.5
8.7000,2.3596,2.0552,1.3170,0.3056,0.3071,0.2748,0.0406,-0.0975,30.8
8.8000,2.3626,2.0857,1.3504,0.3063,0.3081,0.2732,0.0419,-0.1004,31.1
8.9000,2.3646,2.1163,1.3837,0.3072,0.3074,0.2790,0.0430,-0.1036,31.4
9.0000,2.3654,2.1471,1.4177,0.3072,0.3086,0.2791,0.0442,-0.1061,31.7
9.1000,2.3652,2.1778,1.4518,0.3079,0.3095,0.2786,0.0453,-0.1087,32.0
9.2000,2.3640,2.2087,1.4859,0.3086,0.3085,0.2850,0.0463,-0.1115,32.4
9.3000,2.3616,2.2394,1.5209,0.3086,0.3097,0.2851,0.0473,-0.1135,32.7
9.4000,2.3581,2.2701,1.5559,0.3091,0.3104,0.2843,0.0482,-0.1157,33.0
9.5000,2.3535,2.3008,1.5909,0.3097,0.3110,0.2843,0.0491,-0.1180,33.3
9.6000,2.3479,2.3313,1.6259,0.3103,0.3113,0.2852,0.0499,-0.1204,33.6
9.7000,2.3412,2.3616,1.6611,0.3108,0.3115,0.2867,0.0506,-0.1228,33.9
9.8000,2.3334,2.3917,1.6966,0.3111,0.3148,0.2769,0.0513,-0.1250,34.2
9.9000,2.3246,2.4218,1.7310,0.3128,0.3129,0.2828,0.0518,-0.1285,34.5

# Reference path (map frame)
ref_x,ref_y
0.000000,0.000000
0.020911,0.000301
0.041636,0.001197
0.062177,0.002676
0.082539,0.004727
0.102724,0.007338
0.122738,0.010497
0.142582,0.014194
0.162261,0.018417
0.181779,0.023155
0.201138,0.028395
0.220343,0.034127
0.239397,0.040339
0.258304,0.047019
0.277067,0.054157
0.295690,0.061740
0.314177,0.069758
0.332531,0.078198
0.350755,0.087049
0.368854,0.096301
0.386831,0.105940
0.404689,0.115957
0.422433,0.126339
0.440065,0.137075
0.457590,0.148153
0.475010,0.159563
0.492330,0.171292
0.509553,0.183329
0.526683,0.195663
0.543723,0.208282
0.560677,0.221175
0.577549,0.234330
0.594342,0.247736
0.611059,0.261381
0.627705,0.275255
0.644282,0.289344
0.660796,0.303639
0.677248,0.318127
0.693643,0.332798
0.709984,0.347639
0.726275,0.362639
0.742520,0.377786
0.758722,0.393070
0.774884,0.408479
0.791011,0.424001
0.807106,0.439625
0.823172,0.455339
0.839213,0.471133
0.855233,0.486993
0.871235,0.502910
0.887223,0.518871
0.903201,0.534865
0.919172,0.550881
0.935139,0.566907
0.951107,0.582932
0.967078,0.598944
0.983057,0.614932
0.999047,0.630884
1.015052,0.646789
1.031075,0.662635
1.047120,0.678412
1.063190,0.694107
1.079289,0.709708
1.095422,0.725206
1.111590,0.740587
1.127798,0.755841
1.144050,0.770956
1.160348,0.785921
1.176698,0.800725
1.193101,0.815355
1.209563,0.829800
1.226086,0.844049
1.242674,0.858091
1.259330,0.871914
1.276059,0.885506
1.292864,0.898856
1.309748,0.911952
1.326715,0.924784
1.343769,0.937340
1.360913,0.949607
1.378245,0.961736
1.395627,0.973886
1.413010,0.986036
1.430393,0.998185
1.447776,1.010335
1.465159,1.022485
1.482542,1.034634
1.499925,1.046784
1.517308,1.058934
1.534691,1.071084
1.552074,1.083233
1.569457,1.095383
1.586840,1.107533
1.604222,1.119682
1.621605,1.131832
1.638988,1.143982
1.656371,1.156131
1.673754,1.168281
1.691137,1.180431
1.708520,1.192580
1.725903,1.204730
1.743286,1.216880
1.760669,1.229029
1.778052,1.241179
1.795435,1.253329
1.812817,1.265479
1.830200,1.277628
1.847583,1.289778
1.864966,1.301928
1.882349,1.314077
1.899732,1.326227
1.917113,1.338380
1.934420,1.350626
1.950359,1.364625
1.966334,1.378579
1.982312,1.392528
1.998290,1.406478
2.014269,1.420427
2.030247,1.434376
2.046225,1.448325
2.062204,1.462274
2.078182,1.476223
2.094160,1.490173
2.110138,1.504122
2.126000,1.518203
2.141532,1.532647
2.156723,1.547448
2.171564,1.562599
2.186047,1.578092
2.200164,1.593917
2.213906,1.610067
2.227267,1.626532
2.240240,1.643302
2.252815,1.660370
2.264988,1.677724
2.276751,1.695356
2.288097,1.713256
2.299020,1.731414
2.309515,1.749819
2.319575,1.768462
2.329194,1.787332
2.338368,1.806419
2.347092,1.825712
2.355359,1.845200
2.363167,1.864873
2.370510,1.884720
2.377384,1.904729
2.383787,1.924890
2.389713,1.945191
2.395160,1.965621
2.400125,1.986169
2.404605,2.006824
2.408597,2.027573
2.412100,2.048406
2.415111,2.069310
2.417629,2.090275
2.419652,2.111288
2.421179,2.132338
2.422209,2.153413
2.422743,2.174502
2.422779,2.195592
2.422317,2.216673
2.421358,2.237732
2.419902,2.258757
2.417950,2.279738
2.415503,2.300662
2.412563,2.321518
2.409131,2.342294
2.405209,2.362979
2.400799,2.383560
2.395904,2.404028
2.390526,2.424370
2.384668,2.444575
2.378334,2.464632
2.371527,2.484530
2.364251,2.504257
2.356510,2.523803
2.348308,2.543157
2.339650,2.562309
2.330541,2.581246
2.320985,2.599960
2.310988,2.618440
2.300556,2.636674
2.289694,2.654654
2.278408,2.672370
2.266705,2.689810
2.254591,2.706967
2.242072,2.723830
2.229157,2.740389
2.215851,2.756637
2.202171,2.772569
2.188358,2.788388
2.174547,2.804208
2.160735,2.820028
2.146924,2.835848
2.133113,2.851668
2.119302,2.867488
2.105491,2.883308
2.091680,2.899128
2.077869,2.914948
2.064058,2.930768
2.050247,2.946588
2.036436,2.962409
2.022625,2.978229
2.008814,2.994049
1.995003,3.009869
1.981192,3.025689
1.967381,3.041509
1.953570,3.057329
1.939759,3.073149
1.925948,3.088969
1.912137,3.104789
1.898325,3.120610
1.884514,3.136430
1.870703,3.152250
1.856892,3.168070
1.843081,3.183890
1.829270,3.199710
1.815459,3.215530
1.801648,3.231350
1.787837,3.247170
1.774026,3.262990
1.760215,3.278810
1.746404,3.294631
1.732593,3.310451
1.718782,3.326271
1.704971,3.342091
1.691160,3.357911
1.677349,3.373731
1.663538,3.389551
1.649727,3.405371
1.635915,3.421191
1.622104,3.437011
1.608293,3.452832
1.594482,3.468652
1.580671,3.484472
1.566860,3.500292
1.553049,3.516112
1.539238,3.531932
1.525427,3.547752
1.511616,3.563572
1.497805,3.579392
1.483994,3.595212
1.470183,3.611033
1.456372,3.626853
1.442561,3.642673
1.428750,3.658493
1.414939,3.674313
1.401128,3.690133
1.387317,3.705953
1.373506,3.721773
1.359694,3.737593
1.345883,3.753413
1.332072,3.769233
1.318261,3.785054
1.304450,3.800874
1.290639,3.816694
1.276828,3.832514
1.263017,3.848334
1.249206,3.864154
1.235395,3.879974
1.221584,3.895794
1.207773,3.911614
1.193962,3.927434
1.180151,3.943255
1.166340,3.959075
1.152529,3.974895
1.138718,3.990715
1.124907,4.006535
1.111096,4.022355
1.097284,4.038175
1.083473,4.053995
1.069662,4.069815
1.055851,4.085635
1.042040,4.101455
1.028229,4.117276
1.014418,4.133096
1.000607,4.148916
0.986796,4.164736
0.972985,4.180556
0.959174,4.196376
0.945363,4.212196
0.931552,4.228016
0.917741,4.243836
0.903930,4.259656
0.890119,4.275477
0.876308,4.291297
0.862497,4.307117
0.848686,4.322937
0.834874,4.338757
0.821063,4.354577
0.807252,4.370397
0.793441,4.386217
0.779630,4.402037
0.765819,4.417857
0.752008,4.433678
0.738197,4.449498
0.724386,4.465318
0.710575,4.481138
0.696764,4.496958
0.682953,4.512778
0.669142,4.528598
0.655331,4.544418
0.641520,4.560238
0.627709,4.576058
0.613898,4.591878
0.600087,4.607699
0.586276,4.623519
0.572465,4.639339
0.558653,4.655159
0.544842,4.670979
0.531031,4.686799
0.517220,4.702619
0.503409,4.718439
0.489598,4.734259
0.475787,4.750079
0.461976,4.765900
0.448165,4.781720
0.434354,4.797540
0.420543,4.813360
0.406732,4.829180
0.392921,4.845000
0.379110,4.860820
0.365299,4.876640
0.351488,4.892460
0.337677,4.908280
0.323866,4.924100
0.310055,4.939921
0.296243,4.955741
0.282432,4.971561
0.268621,4.987381
0.254810,5.003201
0.240999,5.019021
0.227188,5.034841
0.213377,5.050661
0.199566,5.066481
0.185755,5.082301
0.171944,5.098122
0.158133,5.113942
0.144322,5.129762
0.130511,5.145582
0.116700,5.161402
0.102889,5.177222
0.089078,5.193042
0.075267,5.208862
0.061456,5.224682
0.047645,5.240502
0.033833,5.256322
0.020022,5.272143
0.006211,5.287963
-0.007600,5.303783
-0.021411,5.319603
-0.035222,5.335423
-0.049033,5.351243
-0.062844,5.367063
-0.076655,5.382883
-0.090466,5.398703
-0.104277,5.414523
-0.118088,5.430344
-0.131899,5.446164
-0.145710,5.461984
-0.159521,5.477804
-0.173332,5.493624
-0.187143,5.509444
-0.200954,5.525264
-0.214765,5.541084
-0.228576,5.556904
-0.242388,5.572724
-0.256199,5.588545
-0.270010,5.604365
-0.283821,5.620185
-0.297632,5.636005
-0.311443,5.651825
-0.325254,5.667645
-0.339065,5.683465
-0.352876,5.699285
-0.366687,5.715105
-0.380498,5.730925
-0.394309,5.746745
-0.408120,5.762566
-0.421931,5.778385
-0.435749,5.794200
-0.449842,5.809769
-0.464420,5.824885
-0.479464,5.839538
-0.494961,5.853714
-0.510894,5.867399
-0.527250,5.880581
-0.544012,5.893246
-0.561163,5.905382
-0.578689,5.916978
-0.596571,5.928023
-0.614792,5.938506
-0.633336,5.948416
-0.652184,5.957745
-0.671318,5.966483
-0.690720,5.974622
-0.710371,5.982155
-0.730253,5.989074
-0.750345,5.995371
-0.770630,6.001042
-0.791087,6.006081
-0.811696,6.010483
-0.832439,6.014244
-0.853295,6.017360
-0.874244,6.019828
-0.895265,6.021646
-0.916340,6.022812
-0.937447,6.023324
-0.958566,6.023184
-0.979677,6.022390
-1.000760,6.020943
-1.021794,6.018845
-1.042759,6.016097
-1.063636,6.012703
-1.084404,6.008666
-1.105042,6.003989
-1.125532,5.998677
-1.145854,5.992736
-1.165987,5.986170
-1.185914,5.978986
-1.205614,5.971191
-1.225068,5.962793
-1.244259,5.953799
-1.263167,5.944219
-1.281775,5.934061
-1.300065,5.923335
-1.318018,5.912051
-1.335618,5.900221
-1.352848,5.887856
-1.369691,5.874967
-1.386131,5.861566
-1.402188,5.847708
-1.418165,5.833758
-1.434144,5.819809
-1.450122,5.805859
-1.466100,5.791910
-1.482078,5.777961
-1.498057,5.764012
-1.514035,5.750063
-1.530013,5.736114
-1.545992,5.722164
-1.561970,5.708215
-1.577948,5.694266
-1.593927,5.680317
-1.609905,5.666368
-1.625883,5.652419
-1.641861,5.638469
-1.657840,5.624520
-1.673818,5.610571
-1.689796,5.596622
-1.705775,5.582673
-1.721753,5.568724
-1.737731,5.554774
-1.753709,5.540825
-1.769688,5.526876
-1.785666,5.512927
-1.801644,5.498978
-1.817623,5.485029
-1.833601,5.471080
-1.849579,5.457130
-1.865558,5.443181
-1.881536,5.429232
-1.897514,5.415283
-1.913492,5.401334
-1.929471,5.387385
-1.945449,5.373435
-1.961427,5.359486
-1.977406,5.345537
-1.993384,5.331588
-2.009362,5.317639
-2.025341,5.303690
-2.041319,5.289740
-2.057297,5.275791
-2.073275,5.261842
-2.089254,5.247893
-2.105232,5.233944
-2.121210,5.219995
-2.137189,5.206045
-2.153167,5.192096
-2.169145,5.178147
-2.185124,5.164198
-2.201102,5.150249
-2.217080,5.136300
-2.233058,5.122350
-2.249037,5.108401
-2.265015,5.094452
-2.280993,5.080503
-2.296972,5.066554
-2.312950,5.052605
-2.328928,5.038655
-2.344906,5.024706
-2.360885,5.010757
-2.376863,4.996808
-2.392841,4.982859
-2.408820,4.968910
-2.424798,4.954961
-2.440776,4.941011
-2.456755,4.927062
-2.472733,4.913113
-2.488711,4.899164
