elapsed_s,x,y,theta,v_meas,v_cmd,delta_cmd,progress_pct,solve_time_us,cross_track_err,heading_err,n_obstacles,motion_enabled,traffic_stop
0.000,0.0029,0.0020,0.6100,0.0700,0.4493,-0.0029,0.0,50,0.0013,-0.0000,0,1,0
0.100,0.0112,0.0078,0.6098,0.1330,0.4493,-0.0042,0.1,50,0.0013,-0.0002,0,1,0
0.200,0.0243,0.0169,0.6096,0.1860,0.4494,-0.0045,0.3,50,0.0012,-0.0004,0,1,0
0.300,0.0414,0.0288,0.6092,0.2300,0.4470,-0.0042,0.5,50,0.0012,-0.0008,0,1,0
0.400,0.0618,0.0429,0.6088,0.2663,0.4457,-0.0037,0.7,50,0.0011,-0.0012,0,1,0
0.500,0.0849,0.0590,0.6085,0.2964,0.4456,-0.0030,1.0,50,0.0010,-0.0015,0,1,0
0.600,0.1103,0.0766,0.6082,0.3219,0.4491,-0.0017,1.3,50,0.0009,-0.0018,0,1,0
0.700,0.1375,0.0956,0.6080,0.3430,0.4473,-0.0009,1.6,50,0.0008,-0.0020,0,1,0
0.800,0.1664,0.1157,0.6079,0.3606,0.4481,-0.0003,1.9,50,0.0008,-0.0021,0,1,0
0.900,0.1967,0.1367,0.6080,0.3757,0.4515,0.0003,2.3,50,0.0007,-0.0021,0,1,0
1.000,0.2280,0.1586,0.6080,0.3890,0.4561,0.0008,2.6,50,0.0006,-0.0020,0,1,0
1.100,0.2604,0.1811,0.6082,0.4003,0.4569,0.0010,3.0,50,0.0006,-0.0019,0,1,0
1.200,0.2936,0.2043,0.6083,0.4098,0.4569,0.0010,3.4,50,0.0005,-0.0017,0,1,0
1.300,0.3276,0.2279,0.6085,0.4177,0.4569,0.0010,3.8,50,0.0005,-0.0015,0,1,0
1.400,0.3621,0.2520,0.6086,0.4243,0.4569,0.0009,4.2,50,0.0004,-0.0014,0,1,0
1.500,0.3971,0.2765,0.6088,0.4298,0.4569,0.0008,4.6,50,0.0004,-0.0012,0,1,0
1.600,0.4326,0.3012,0.6089,0.4343,0.4569,0.0007,5.0,50,0.0003,-0.0011,0,1,0
1.700,0.4683,0.3261,0.6090,0.4381,0.4569,0.0006,5.4,50,0.0003,-0.0010,0,1,0
1.800,0.5044,0.3513,0.6091,0.4413,0.4569,0.0005,5.8,50,0.0003,-0.0009,0,1,0
1.900,0.5407,0.3766,0.6092,0.4439,0.4569,0.0005,6.3,50,0.0003,-0.0008,0,1,0
2.000,0.5772,0.4021,0.6093,0.4461,0.4569,0.0004,6.7,50,0.0002,-0.0007,0,1,0
2.100,0.6138,0.4277,0.6094,0.4479,0.4569,0.0004,7.1,50,0.0002,-0.0007,0,1,0
2.200,0.6506,0.4534,0.6094,0.4494,0.4569,0.0003,7.5,50,0.0002,-0.0006,0,1,0
2.300,0.6875,0.4792,0.6095,0.4507,0.4569,0.0003,8.0,50,0.0002,-0.0005,0,1,0
2.400,0.7245,0.5050,0.6095,0.4517,0.4569,0.0003,8.4,50,0.0002,-0.0005,0,1,0
2.500,0.7616,0.5309,0.6096,0.4526,0.4569,0.0002,8.8,50,0.0001,-0.0005,0,1,0
2.600,0.7987,0.5568,0.6096,0.4533,0.4569,0.0001,9.3,50,0.0001,-0.0004,0,1,0
2.700,0.8359,0.5828,0.6096,0.4539,0.4569,0.0001,9.7,50,0.0001,-0.0004,0,1,0
2.800,0.8732,0.6088,0.6096,0.4544,0.4569,-0.0001,10.1,50,0.0001,-0.0004,0,1,0
2.900,0.9104,0.6348,0.6096,0.4549,0.4569,-0.0002,10.6,50,0.0001,-0.0004,0,1,0
3.000,0.9477,0.6609,0.6095,0.4549,0.4539,-0.0003,11.0,50,0.0000,-0.0005,0,1,0
3.100,0.9850,0.6869,0.6095,0.4547,0.4538,-0.0005,11.4,50,0.0000,-0.0005,0,1,0
3.200,1.0223,0.7129,0.6094,0.4542,0.4509,-0.0007,11.9,50,0.0000,-0.0006,0,1,0
3.300,1.0595,0.7389,0.6092,0.4537,0.4509,-0.0010,12.3,50,0.0001,-0.0008,0,1,0
3.400,1.0967,0.7648,0.6090,0.4532,0.4509,-0.0014,12.7,50,0.0001,-0.0010,0,1,0
3.500,1.1339,0.7907,0.6087,0.4529,0.4509,-0.0019,13.1,50,0.0002,-0.0013,0,1,0
3.600,1.1711,0.8165,0.6083,0.4525,0.4509,-0.0025,13.6,50,0.0004,-0.0017,0,1,0
3.700,1.2083,0.8423,0.6078,0.4523,0.4509,-0.0032,14.0,50,0.0005,-0.0022,0,1,0
3.800,1.2454,0.8680,0.6072,0.4520,0.4509,-0.0041,14.4,50,0.0007,-0.0028,0,1,0
3.900,1.2826,0.8937,0.6064,0.4518,0.4509,-0.0051,14.9,50,0.0010,-0.0037,0,1,0
4.000,1.3198,0.9194,0.6054,0.4517,0.4509,-0.0063,15.3,50,0.0013,-0.0047,0,1,0
4.100,1.3571,0.9449,0.6042,0.4516,0.4509,-0.0074,15.7,50,0.0017,-0.0059,0,1,0
4.200,1.3943,0.9704,0.6027,0.4515,0.4509,-0.0086,16.2,50,0.0021,-0.0073,0,1,0
4.300,1.4317,0.9958,0.6011,0.4514,0.4509,-0.0095,16.6,50,0.0027,-0.0089,0,1,0
4.400,1.4690,1.0211,0.5994,0.4513,0.4509,-0.0102,17.0,50,0.0034,-0.0106,0,1,0
4.500,1.5064,1.0463,0.5976,0.4512,0.4509,-0.0104,17.4,50,0.0041,-0.0124,0,1,0
4.600,1.5439,1.0715,0.5958,0.4512,0.4509,-0.0101,17.9,50,0.0050,-0.0142,0,1,0
4.700,1.5814,1.0966,0.5941,0.4511,0.4509,-0.0090,18.3,50,0.0058,-0.0160,0,1,0
4.800,1.6189,1.1217,0.5927,0.4510,0.4501,-0.0069,18.7,50,0.0068,-0.0177,0,1,0
4.900,1.6564,1.1467,0.5918,0.4507,0.4490,-0.0036,19.2,50,0.0077,-0.0193,0,1,0
5.000,1.6938,1.1718,0.5916,0.4502,0.4470,0.0010,19.6,50,0.0087,-0.0210,0,1,0
5.100,1.7310,1.1970,0.5923,0.4493,0.4436,0.0069,20.0,50,0.0096,-0.0227,0,1,0
5.200,1.7681,1.2223,0.5941,0.4478,0.4384,0.0142,20.4,50,0.0104,-0.0249,0,1,0
5.300,1.8048,1.2476,0.5973,0.4454,0.4314,0.0228,20.9,50,0.0112,-0.0277,0,1,0
5.400,1.8411,1.2732,0.6021,0.4421,0.4228,0.0325,21.3,50,0.0119,-0.0313,0,1,0
5.500,1.8768,1.2989,0.6086,0.4379,0.4135,0.0431,21.7,50,0.0125,-0.0355,0,1,0
5.600,1.9118,1.3248,0.6169,0.4329,0.4048,0.0544,22.1,50,0.0131,-0.0401,0,1,0
5.700,1.9460,1.3509,0.6271,0.4273,0.3973,0.0669,22.5,50,0.0136,-0.0443,0,1,0
5.800,1.9793,1.3773,0.6393,0.4217,0.3913,0.0801,22.9,50,0.0140,-0.0479,0,1,0
5.900,2.0116,1.4039,0.6535,0.4160,0.3863,0.0925,23.3,50,0.0142,-0.0506,0,1,0
6.000,2.0429,1.4309,0.6694,0.4105,0.3813,0.1051,23.7,50,0.0143,-0.0528,0,1,0
6.100,2.0732,1.4582,0.6873,0.4049,0.3750,0.1188,24.1,50,0.0142,-0.0548,0,1,0
6.200,2.1023,1.4859,0.7072,0.3990,0.3667,0.1334,24.5,50,0.0139,-0.0571,0,1,0
6.300,2.1302,1.5140,0.7290,0.3924,0.3566,0.1484,24.9,50,0.0134,-0.0600,0,1,0
6.400,2.1567,1.5424,0.7529,0.3852,0.3453,0.1636,25.2,50,0.0128,-0.0637,0,1,0
6.500,2.1818,1.5710,0.7785,0.3772,0.3337,0.1784,25.6,50,0.0120,-0.0683,0,1,0
6.600,2.2055,1.5999,0.8057,0.3688,0.3231,0.1925,25.9,50,0.0112,-0.0735,0,1,0
6.700,2.2275,1.6289,0.8342,0.3601,0.3139,0.2054,26.3,50,0.0103,-0.0791,0,1,0
6.800,2.2481,1.6580,0.8639,0.3516,0.3065,0.2170,26.6,50,0.0094,-0.0847,0,1,0
6.900,2.2671,1.6871,0.8943,0.3435,0.3010,0.2270,26.9,50,0.0085,-0.0900,0,1,0
7.000,2.2847,1.7161,0.9253,0.3359,0.2972,0.2355,27.3,50,0.0077,-0.0949,0,1,0
7.100,2.3009,1.7452,0.9568,0.3291,0.2944,0.2424,27.6,50,0.0069,-0.0994,0,1,0
7.200,2.3157,1.7742,0.9884,0.3231,0.2925,0.2480,27.9,50,0.0062,-0.1035,0,1,0
7.300,2.3294,1.8032,1.0201,0.3178,0.2914,0.2526,28.2,50,0.0055,-0.1071,0,1,0
7.400,2.3418,1.8322,1.0519,0.3133,0.2906,0.2564,28.5,50,0.0048,-0.1104,0,1,0
7.500,2.3531,1.8612,1.0838,0.3095,0.2902,0.2598,28.8,50,0.0042,-0.1132,0,1,0
7.600,2.3633,1.8902,1.1156,0.3062,0.2899,0.2628,29.1,50,0.0036,-0.1157,0,1,0
7.700,2.3725,1.9193,1.1475,0.3034,0.2897,0.2653,29.4,50,0.0031,-0.1180,0,1,0
7.800,2.3806,1.9484,1.1795,0.3011,0.2897,0.2675,29.6,50,0.0026,-0.1199,0,1,0
7.900,2.3877,1.9776,1.2114,0.2992,0.2896,0.2695,29.9,50,0.0021,-0.1217,0,1,0
8.000,2.3938,2.0068,1.2434,0.2976,0.2895,0.2715,30.2,50,0.0017,-0.1232,0,1,0
8.100,2.3938,2.0068,1.2434,0.0976,0.0000,0.2715,30.2,50,0.0017,-0.1232,0,1,0
8.200,2.3938,2.0068,1.2434,0.0000,0.0000,0.2715,30.2,50,0.0017,-0.1232,0,1,0
8.300,2.3938,2.0068,1.2434,0.0000,0.0000,0.2715,30.2,50,0.0017,-0.1232,0,1,0
8.400,2.3938,2.0068,1.2434,0.0000,0.0000,0.2715,30.2,50,0.0017,-0.1232,0,1,0
8.500,2.3938,2.0068,1.2434,0.0000,0.0000,0.2715,30.2,50,0.0017,-0.1232,0,1,0
8.600,2.3938,2.0068,1.2434,0.0000,0.0000,0.2715,30.2,50,0.0017,-0.1232,0,1,0
8.700,2.3938,2.0068,1.2434,0.0000,0.0000,0.2715,30.2,50,0.0017,-0.1232,0,1,0
8.800,2.3938,2.0068,1.2434,0.0000,0.0000,0.2715,30.2,50,0.0017,-0.1232,0,1,0
8.900,2.3938,2.0068,1.2434,0.0000,0.0000,0.2715,30.2,50,0.0017,-0.1232,0,1,0
9.000,2.3938,2.0068,1.2434,0.0000,0.0000,0.2715,30.2,50,0.0017,-0.1232,0,1,0
9.100,2.3938,2.0068,1.2434,0.0000,0.0000,0.2715,30.2,50,0.0017,-0.1232,0,1,0
9.200,2.3938,2.0068,1.2434,0.0000,0.0000,0.2715,30.2,50,0.0017,-0.1232,0,1,0
9.300,2.3938,2.0068,1.2434,0.0000,0.0000,0.2715,30.2,50,0.0017,-0.1232,0,1,0
9.400,2.3938,2.0068,1.2434,0.0000,0.0000,0.2715,30.2,50,0.0017,-0.1232,0,1,0
9.500,2.3938,2.0068,1.2434,0.0000,0.0000,0.2715,30.2,50,0.0017,-0.1232,0,1,0
9.600,2.3938,2.0068,1.2434,0.0000,0.0000,0.2715,30.2,50,0.0017,-0.1232,0,1,0
9.700,2.3938,2.0068,1.2434,0.0000,0.0000,0.2715,30.2,50,0.0017,-0.1232,0,1,0
9.800,2.3938,2.0068,1.2434,0.0000,0.0000,0.2715,30.2,50,0.0017,-0.1232,0,1,0
9.900,2.3938,2.0068,1.2434,0.0000,0.0000,0.2715,30.2,50,0.0017,-0.1232,0,1,0
10.000,2.3938,2.0068,1.2434,0.0000,0.0000,0.2715,30.2,50,0.0017,-0.1232,0,1,0
10.100,2.3938,2.0068,1.2434,0.0000,0.0000,0.2715,30.2,50,0.0017,-0.1232,0,1,0
10.200,2.3938,2.0068,1.2434,0.0000,0.0000,0.2715,30.2,50,0.0017,-0.1232,0,1,0
10.300,2.3938,2.0068,1.2434,0.0000,0.0000,0.2715,30.2,50,0.0017,-0.1232,0,1,0
10.400,2.3938,2.0068,1.2434,0.0000,0.0000,0.2715,30.2,50,0.0017,-0.1232,0,1,0
10.500,2.3938,2.0068,1.2434,0.0000,0.0000,0.2715,30.2,50,0.0017,-0.1232,0,1,0
10.600,2.3938,2.0068,1.2434,0.0000,0.0000,0.2715,30.2,50,0.0017,-0.1232,0,1,0
10.700,2.3938,2.0068,1.2434,0.0000,0.0000,0.2715,30.2,50,0.0017,-0.1232,0,1,0
10.800,2.3938,2.0068,1.2434,0.0000,0.0000,0.2715,30.2,50,0.0017,-0.1232,0,1,0
10.900,2.3938,2.0068,1.2434,0.0000,0.0000,0.2715,30.2,50,0.0017,-0.1232,0,1,0
11.000,2.3938,2.0068,1.2434,0.0000,0.0000,0.2715,30.2,50,0.0017,-0.1232,0,1,0
11.100,2.3943,2.0094,1.2463,0.0525,0.2892,0.2736,30.2,50,0.0016,-0.1233,0,1,0
11.200,2.3956,2.0165,1.2542,0.0927,0.2892,0.2754,30.3,50,0.0015,-0.1236,0,1,0
11.300,2.3974,2.0273,1.2662,0.1258,0.2892,0.2773,30.4,50,0.0013,-0.1239,0,1,0
11.400,2.3996,2.0411,1.2816,0.1532,0.2892,0.2792,30.5,50,0.0011,-0.1242,0,1,0
11.500,2.4018,2.0574,1.2999,0.1761,0.2892,0.2808,30.7,50,0.0008,-0.1244,0,1,0
11.600,2.4040,2.0758,1.3206,0.1951,0.2891,0.2813,30.9,50,0.0004,-0.1247,0,1,0
11.700,2.4059,2.0960,1.3433,0.2109,0.2890,0.2811,31.1,50,0.0000,-0.1249,0,1,0
11.800,2.4075,2.1177,1.3676,0.2240,0.2890,0.2815,31.3,50,0.0004,-0.1252,0,1,0
11.900,2.4086,2.1406,1.3933,0.2349,0.2889,0.2834,31.5,50,0.0008,-0.1255,0,1,0
12.000,2.4090,2.1646,1.4204,0.2440,0.2888,0.2861,31.7,50,0.0013,-0.1256,0,1,0
12.100,2.4088,2.1893,1.4487,0.2515,0.2887,0.2882,32.0,50,0.0018,-0.1254,0,1,0
12.200,2.4077,2.2148,1.4779,0.2577,0.2886,0.2895,32.2,50,0.0024,-0.1251,0,1,0
12.300,2.4059,2.2407,1.5079,0.2629,0.2885,0.2907,32.4,50,0.0030,-0.1248,0,1,0
12.400,2.4032,2.2671,1.5387,0.2672,0.2884,0.2927,32.7,50,0.0036,-0.1242,0,1,0
12.500,2.3996,2.2938,1.5701,0.2708,0.2883,0.2953,33.0,50,0.0043,-0.1235,0,1,0
12.600,2.3951,2.3206,1.6022,0.2737,0.2882,0.2973,33.2,50,0.0051,-0.1226,0,1,0
12.700,2.3897,2.3475,1.6348,0.2761,0.2881,0.2985,33.5,50,0.0059,-0.1215,0,1,0
12.800,2.3832,2.3745,1.6678,0.2781,0.2880,0.2991,33.7,50,0.0068,-0.1204,0,1,0
12.900,2.3759,2.4014,1.7010,0.2798,0.2880,0.2998,34.0,50,0.0077,-0.1192,0,1,0
13.000,2.3676,2.4282,1.7345,0.2812,0.2881,0.3001,34.3,50,0.0087,-0.1180,0,1,0
13.100,2.3584,2.4548,1.7681,0.2824,0.2883,0.2993,34.5,50,0.0097,-0.1167,0,1,0
13.200,2.3482,2.4812,1.8017,0.2834,0.2887,0.2972,34.8,50,0.0108,-0.1155,0,1,0
13.300,2.3372,2.5074,1.8351,0.2844,0.2894,0.2939,35.1,50,0.0118,-0.1145,0,1,0
13.400,2.3253,2.5333,1.8681,0.2853,0.2905,0.2895,35.4,50,0.0128,-0.1136,0,1,0
13.500,2.3127,2.5589,1.9006,0.2864,0.2922,0.2834,35.6,50,0.0137,-0.1128,0,1,0
13.600,2.2992,2.5842,1.9325,0.2876,0.2947,0.2757,35.9,50,0.0146,-0.1122,0,1,0
13.700,2.2850,2.6093,1.9635,0.2892,0.2981,0.2662,36.2,50,0.0153,-0.1116,0,1,0
13.800,2.2700,2.6342,1.9934,0.2912,0.3028,0.2550,36.5,50,0.0160,-0.1108,0,1,0
13.900,2.2544,2.6589,2.0222,0.2938,0.3088,0.2422,36.8,50,0.0164,-0.1099,0,1,0
14.000,2.2381,2.6836,2.0497,0.2971,0.3163,0.2279,37.0,50,0.0167,-0.1085,0,1,0
14.100,2.2211,2.7082,2.0757,0.3014,0.3255,0.2124,37.3,50,0.0168,-0.1064,0,1,0
14.200,2.2035,2.7330,2.1001,0.3066,0.3362,0.1959,37.6,50,0.0168,-0.1036,0,1,0
14.300,2.1851,2.7579,2.1229,0.3129,0.3484,0.1789,37.9,50,0.0165,-0.0998,0,1,0
14.400,2.1660,2.7831,2.1441,0.3203,0.3618,0.1614,38.2,50,0.0162,-0.0950,0,1,0
14.500,2.1461,2.8088,2.1635,0.3288,0.3758,0.1436,38.5,50,0.0157,-0.0892,0,1,0
14.600,2.1254,2.8349,2.1811,0.3382,0.3899,0.1256,38.9,50,0.0151,-0.0825,0,1,0
14.700,2.1039,2.8617,2.1968,0.3483,0.4034,0.1081,39.2,50,0.0144,-0.0752,0,1,0
14.800,2.0816,2.8891,2.2106,0.3589,0.4157,0.0913,39.5,50,0.0136,-0.0675,0,1,0
14.900,2.0584,2.9172,2.2225,0.3695,0.4262,0.0757,39.9,50,0.0128,-0.0599,0,1,0
15.000,2.0345,2.9461,2.2326,0.3799,0.4347,0.0618,40.2,50,0.0120,-0.0526,0,1,0
15.100,2.0099,2.9757,2.2410,0.3898,0.4410,0.0497,40.6,50,0.0112,-0.0459,0,1,0
15.200,1.9846,3.0060,2.2478,0.3988,0.4453,0.0395,41.0,50,0.0104,-0.0400,0,1,0
15.300,1.9587,3.0368,2.2534,0.4073,0.4509,0.0310,41.4,50,0.0096,-0.0349,0,1,0
15.400,1.9323,3.0683,2.2578,0.4151,0.4555,0.0245,41.7,50,0.0088,-0.0306,0,1,0
15.500,1.9053,3.1003,2.2615,0.4220,0.4565,0.0199,42.1,50,0.0081,-0.0270,0,1,0
15.600,1.8779,3.1328,2.2645,0.4278,0.4569,0.0165,42.5,50,0.0074,-0.0240,0,1,0
15.700,1.8501,3.1656,2.2670,0.4327,0.4570,0.0139,43.0,50,0.0067,-0.0215,0,1,0
15.800,1.8220,3.1988,2.2692,0.4368,0.4570,0.0119,43.4,50,0.0061,-0.0193,0,1,0
15.900,1.7936,3.2322,2.2711,0.4402,0.4570,0.0104,43.8,50,0.0055,-0.0174,0,1,0
16.000,1.7649,3.2658,2.2728,0.4430,0.4569,0.0091,44.2,50,0.0050,-0.0157,0,1,0
16.100,1.7361,3.2995,2.2743,0.4453,0.4569,0.0082,44.6,50,0.0046,-0.0142,0,1,0
16.200,1.7070,3.3334,2.2757,0.4473,0.4569,0.0073,45.1,50,0.0041,-0.0128,0,1,0
16.300,1.6779,3.3675,2.2769,0.4489,0.4569,0.0066,45.5,50,0.0037,-0.0116,0,1,0
16.400,1.6486,3.4016,2.2780,0.4503,0.4569,0.0060,45.9,50,0.0034,-0.0105,0,1,0
16.500,1.6192,3.4357,2.2790,0.4514,0.4569,0.0054,46.3,50,0.0031,-0.0095,0,1,0
16.600,1.5897,3.4700,2.2799,0.4523,0.4569,0.0049,46.8,50,0.0028,-0.0086,0,1,0
16.700,1.5601,3.5042,2.2807,0.4531,0.4569,0.0044,47.2,50,0.0025,-0.0078,0,1,0
16.800,1.5305,3.5385,2.2815,0.4537,0.4569,0.0040,47.6,50,0.0023,-0.0070,0,1,0
16.900,1.5008,3.5729,2.2821,0.4543,0.4569,0.0036,48.1,50,0.0020,-0.0064,0,1,0
17.000,1.4710,3.6073,2.2827,0.4547,0.4569,0.0033,48.5,50,0.0018,-0.0057,0,1,0
17.100,1.4412,3.6416,2.2833,0.4551,0.4569,0.0030,48.9,50,0.0017,-0.0052,0,1,0
17.200,1.4114,3.6760,2.2838,0.4554,0.4569,0.0027,49.4,50,0.0015,-0.0047,0,1,0
17.300,1.3816,3.7105,2.2843,0.4557,0.4569,0.0024,49.8,50,0.0014,-0.0042,0,1,0
17.400,1.3517,3.7449,2.2847,0.4559,0.4569,0.0022,50.2,50,0.0012,-0.0038,0,1,0
17.500,1.3218,3.7793,2.2850,0.4561,0.4569,0.0020,50.7,50,0.0011,-0.0035,0,1,0
17.600,1.2919,3.8137,2.2854,0.4562,0.4569,0.0018,51.1,50,0.0010,-0.0031,0,1,0
17.700,1.2620,3.8482,2.2857,0.4563,0.4569,0.0016,51.5,50,0.0009,-0.0028,0,1,0
17.800,1.2320,3.8826,2.2859,0.4564,0.4569,0.0015,52.0,50,0.0008,-0.0026,0,1,0
17.900,1.2021,3.9170,2.2862,0.4565,0.4569,0.0013,52.4,50,0.0007,-0.0023,0,1,0
18.000,1.1721,3.9515,2.2864,0.4566,0.4569,0.0012,52.8,50,0.0007,-0.0021,0,1,0
18.100,1.1421,3.9859,2.2866,0.4566,0.4569,0.0011,53.3,50,0.0006,-0.0019,0,1,0
18.200,1.1121,4.0204,2.2868,0.4567,0.4569,0.0010,53.7,50,0.0005,-0.0017,0,1,0
18.300,1.0821,4.0548,2.2870,0.4567,0.4569,0.0009,54.1,50,0.0005,-0.0015,0,1,0
18.400,1.0521,4.0892,2.2871,0.4568,0.4569,0.0008,54.6,50,0.0004,-0.0014,0,1,0
18.500,1.0221,4.1237,2.2872,0.4568,0.4569,0.0007,55.0,50,0.0004,-0.0013,0,1,0
18.600,0.9921,4.1581,2.2874,0.4568,0.4569,0.0006,55.4,50,0.0004,-0.0011,0,1,0
18.700,0.9621,4.1926,2.2875,0.4568,0.4569,0.0006,55.9,50,0.0003,-0.0010,0,1,0
18.800,0.9321,4.2270,2.2876,0.4569,0.4569,0.0005,56.3,50,0.0003,-0.0009,0,1,0
18.900,0.9020,4.2614,2.2877,0.4569,0.4569,0.0005,56.7,50,0.0003,-0.0008,0,1,0
19.000,0.8720,4.2959,2.2877,0.4569,0.4569,0.0004,57.2,50,0.0002,-0.0008,0,1,0
19.100,0.8420,4.3303,2.2878,0.4569,0.4569,0.0004,57.6,50,0.0002,-0.0007,0,1,0
19.200,0.8119,4.3647,2.2879,0.4569,0.4569,0.0003,58.0,50,0.0002,-0.0006,0,1,0
19.300,0.7819,4.3992,2.2879,0.4569,0.4569,0.0003,58.5,50,0.0002,-0.0006,0,1,0
19.400,0.7519,4.4336,2.2880,0.4569,0.4569,0.0003,58.9,50,0.0002,-0.0005,0,1,0
19.500,0.7218,4.4680,2.2880,0.4569,0.4569,0.0003,59.3,50,0.0001,-0.0005,0,1,0
19.600,0.6918,4.5025,2.2881,0.4569,0.4569,0.0002,59.8,50,0.0001,-0.0004,0,1,0
19.700,0.6618,4.5369,2.2881,0.4569,0.4569,0.0002,60.2,50,0.0001,-0.0004,0,1,0
19.800,0.6618,4.5369,2.2881,0.2569,0.0000,0.0002,60.2,50,0.0001,-0.0004,0,1,0
19.900,0.6618,4.5369,2.2881,0.0569,0.0000,0.0002,60.2,50,0.0001,-0.0004,0,1,0
20.000,0.6618,4.5369,2.2881,0.0000,0.0000,0.0002,60.2,50,0.0001,-0.0004,0,1,0
20.100,0.6618,4.5369,2.2881,0.0000,0.0000,0.0002,60.2,50,0.0001,-0.0004,0,1,0
20.200,0.6618,4.5369,2.2881,0.0000,0.0000,0.0002,60.2,50,0.0001,-0.0004,0,1,0
20.300,0.6618,4.5369,2.2881,0.0000,0.0000,0.0002,60.2,50,0.0001,-0.0004,0,1,0
20.400,0.6618,4.5369,2.2881,0.0000,0.0000,0.0002,60.2,50,0.0001,-0.0004,0,1,0
20.500,0.6618,4.5369,2.2881,0.0000,0.0000,0.0002,60.2,50,0.0001,-0.0004,0,1,0
20.600,0.6618,4.5369,2.2881,0.0000,0.0000,0.0002,60.2,50,0.0001,-0.0004,0,1,0
20.700,0.6618,4.5369,2.2881,0.0000,0.0000,0.0002,60.2,50,0.0001,-0.0004,0,1,0
20.800,0.6618,4.5369,2.2881,0.0000,0.0000,0.0002,60.2,50,0.0001,-0.0004,0,1,0
20.900,0.6618,4.5369,2.2881,0.0000,0.0000,0.0002,60.2,50,0.0001,-0.0004,0,1,0
21.000,0.6618,4.5369,2.2881,0.0000,0.0000,0.0002,60.2,50,0.0001,-0.0004,0,1,0
21.100,0.6618,4.5369,2.2881,0.0000,0.0000,0.0002,60.2,50,0.0001,-0.0004,0,1,0
21.200,0.6618,4.5369,2.2881,0.0000,0.0000,0.0002,60.2,50,0.0001,-0.0004,0,1,0
21.300,0.6618,4.5369,2.2881,0.0000,0.0000,0.0002,60.2,50,0.0001,-0.0004,0,1,0
21.400,0.6618,4.5369,2.2881,0.0000,0.0000,0.0002,60.2,50,0.0001,-0.0004,0,1,0
21.500,0.6618,4.5369,2.2881,0.0000,0.0000,0.0002,60.2,50,0.0001,-0.0004,0,1,0
21.600,0.6618,4.5369,2.2881,0.0000,0.0000,0.0002,60.2,50,0.0001,-0.0004,0,1,0
21.700,0.6618,4.5369,2.2881,0.0000,0.0000,0.0002,60.2,50,0.0001,-0.0004,0,1,0
21.800,0.6618,4.5369,2.2881,0.0000,0.0000,0.0002,60.2,50,0.0001,-0.0004,0,1,0
21.900,0.6618,4.5369,2.2881,0.0000,0.0000,0.0002,60.2,50,0.0001,-0.0004,0,1,0
22.000,0.6618,4.5369,2.2881,0.0000,0.0000,0.0002,60.2,50,0.0001,-0.0004,0,1,0
22.100,0.6618,4.5369,2.2881,0.0000,0.0000,0.0002,60.2,50,0.0001,-0.0004,0,1,0
22.200,0.6618,4.5369,2.2881,0.0000,0.0000,0.0002,60.2,50,0.0001,-0.0004,0,1,0
22.300,0.6618,4.5369,2.2881,0.0000,0.0000,0.0002,60.2,50,0.0001,-0.0004,0,1,0
22.400,0.6618,4.5369,2.2881,0.0000,0.0000,0.0002,60.2,50,0.0001,-0.0004,0,1,0
22.500,0.6618,4.5369,2.2881,0.0000,0.0000,0.0002,60.2,50,0.0001,-0.0004,0,1,0
22.600,0.6618,4.5369,2.2881,0.0000,0.0000,0.0002,60.2,50,0.0001,-0.0004,0,1,0
22.700,0.6618,4.5369,2.2881,0.0000,0.0000,0.0002,60.2,50,0.0001,-0.0004,0,1,0
22.800,0.6618,4.5369,2.2881,0.0000,0.0000,0.0002,60.2,50,0.0001,-0.0004,0,1,0
22.900,0.6618,4.5369,2.2881,0.0000,0.0000,0.0002,60.2,50,0.0001,-0.0004,0,1,0
23.000,0.6618,4.5369,2.2881,0.0000,0.0000,0.0002,60.2,50,0.0001,-0.0004,0,1,0
23.100,0.6618,4.5369,2.2881,0.0000,0.0000,0.0002,60.2,50,0.0001,-0.0004,0,1,0
23.200,0.6618,4.5369,2.2881,0.0000,0.0000,0.0002,60.2,50,0.0001,-0.0004,0,1,0
23.300,0.6618,4.5369,2.2881,0.0000,0.0000,0.0002,60.2,50,0.0001,-0.0004,0,1,0
23.400,0.6618,4.5369,2.2881,0.0000,0.0000,0.0002,60.2,50,0.0001,-0.0004,0,1,0
23.500,0.6618,4.5369,2.2881,0.0000,0.0000,0.0002,60.2,50,0.0001,-0.0004,0,1,0
23.600,0.6618,4.5369,2.2881,0.0000,0.0000,0.0002,60.2,50,0.0001,-0.0004,0,1,0
23.700,0.6618,4.5369,2.2881,0.0000,0.0000,0.0002,60.2,50,0.0001,-0.0004,0,1,0
23.800,0.6618,4.5369,2.2881,0.0000,0.0000,0.0002,60.2,50,0.0001,-0.0004,0,1,0
23.900,0.6618,4.5369,2.2881,0.0000,0.0000,0.0002,60.2,50,0.0001,-0.0004,0,1,0
24.000,0.6618,4.5369,2.2881,0.0000,0.0000,0.0002,60.2,50,0.0001,-0.0004,0,1,0
24.100,0.6618,4.5369,2.2881,0.0000,0.0000,0.0002,60.2,50,0.0001,-0.0004,0,1,0
24.200,0.6618,4.5369,2.2881,0.0000,0.0000,0.0002,60.2,50,0.0001,-0.0004,0,1,0
24.300,0.6618,4.5369,2.2881,0.0000,0.0000,0.0002,60.2,50,0.0001,-0.0004,0,1,0
24.400,0.6618,4.5369,2.2881,0.0000,0.0000,0.0002,60.2,50,0.0001,-0.0004,0,1,0
24.500,0.6618,4.5369,2.2881,0.0000,0.0000,0.0002,60.2,50,0.0001,-0.0004,0,1,0
24.600,0.6618,4.5369,2.2881,0.0000,0.0000,0.0002,60.2,50,0.0001,-0.0004,0,1,0
24.700,0.6618,4.5369,2.2881,0.0000,0.0000,0.0002,60.2,50,0.0001,-0.0004,0,1,0
24.800,0.6594,4.5396,2.2881,0.0709,0.4566,0.0002,60.3,50,0.0001,-0.0004,0,1,0
24.900,0.6527,4.5473,2.2881,0.1349,0.4567,0.0002,60.3,50,0.0001,-0.0004,0,1,0
25.000,0.6420,4.5595,2.2881,0.1888,0.4567,0.0002,60.5,50,0.0001,-0.0003,0,1,0
25.100,0.6281,4.5754,2.2882,0.2338,0.4568,0.0002,60.7,50,0.0001,-0.0003,0,1,0
25.200,0.6115,4.5945,2.2882,0.2713,0.4568,0.0002,60.9,50,0.0001,-0.0003,0,1,0
25.300,0.5927,4.6161,2.2882,0.3024,0.4568,0.0002,61.2,50,0.0001,-0.0003,0,1,0
25.400,0.5719,4.6398,2.2882,0.3284,0.4568,0.0002,61.5,50,0.0001,-0.0003,0,1,0
